BField (G),freq polarisation=-1,rel. intensity polarisation=-1,freq polarisation=0,rel. intensity polarisation=0,freq polarisation=1,rel. intensity polarisation=1
0,1.72,0.25,1.7203232398331059,0.101761,-1.1377976101040368,0.044944
0.1,1.847226541112705,0.08179600000000002,1.7327848717926582,0.1521,1.6038374145153762,0.142884
0.2,1.9643349621317256,0.08643599999999999,1.7352931306870398,0.15366400000000002,1.492943817326627,0.13764099999999999
0.30000000000000004,2.0903785427673722,0.091809,1.7463928088667389,0.155236,1.3873359823063627,0.132496
0.4,2.225463010396219,0.096721,1.7659548126926397,0.15602500000000002,1.2866816224074213,0.12744899999999998
0.5,2.3697168923399685,0.101761,1.7938079390884099,0.15602500000000002,1.1906355054557165,0.12250000000000003
0.6,2.5232892171020342,0.10692900000000001,1.8297314781501401,0.155236,1.0988505348605657,0.11833600000000002
0.7,2.686340134448143,0.11155600000000002,1.8734525255234968,0.154449,1.0109866358308959,0.11356900000000002
0.7999999999999999,2.859024586098129,0.11560000000000002,1.9246481242291875,0.15288100000000002,0.9267173821874339,0.109561
0.8999999999999999,3.041470246224168,0.11971600000000002,1.9829516440741939,0.150544,0.8457345337249268,0.10562500000000001
0.9999999999999999,3.2337521979410146,0.12320100000000002,2.0479622744113155,0.148225,0.7677507879500138,0.101761
1.0999999999999999,3.4358679356435973,0.126025,2.1192562462900235,0.145924,0.6925011013351676,0.097969
1.2,3.6477168600543433,0.128881,2.1963984221198842,0.143641,-3.4169748842305054,0.10048900000000001
1.3,3.869088073476002,0.131044,2.2789531300671637,0.140625,-3.622626850521862,0.10368400000000001
1.4000000000000001,4.099658877584929,0.132496,2.3664934741621866,0.13764099999999999,-3.830049807001587,0.10692900000000001
1.5000000000000002,4.3390042511321205,0.13322499999999998,2.458608719711752,0.135424,-4.0390640536590094,0.109561
1.6000000000000003,4.586615412304528,0.133956,2.554909666415333,0.132496,-4.249507942682014,0.11222500000000002
1.7000000000000004,4.841924050506602,0.133956,2.655032144865954,0.1296,-4.461236307595881,0.11492100000000001
1.8000000000000005,5.1043283328041955,0.13322499999999998,2.758638902881802,0.126736,-4.674118912238073,0.11696400000000001
1.9000000000000006,5.373217290573599,0.132496,2.865420201959816,0.12460899999999998,-4.888038966911161,0.11902500000000002
2.0000000000000004,5.647991285719106,0.131769,2.9750934437384364,0.12180100000000002,-5.102891739831117,0.12110400000000002
2.1000000000000005,5.928077479908677,0.130321,3.0874021136129,0.11902500000000002,-5.318583278321741,0.12320100000000002
2.2000000000000006,6.212940244653764,0.1296,3.2021142808749232,0.11696400000000001,-5.535029244823118,0.12531599999999998
2.3000000000000007,6.502087107653935,0.128164,3.319020843718448,0.11492100000000001,-5.752153866597115,0.126736
2.400000000000001,6.795071140969136,0.126736,3.437933660078326,0.11289600000000001,-5.96988899414197,0.128164
2.500000000000001,7.091490749025642,0.12531599999999998,3.5586836648476643,0.11088900000000002,-6.188173261094993,0.1296
2.600000000000001,7.390987714783018,0.12390399999999999,3.681119041517727,0.10890000000000001,-6.4069513372909395,0.131044
2.700000000000001,7.693244196603326,0.12250000000000003,3.8051034913213,0.10692900000000001,-6.626173266283032,0.132496
2.800000000000001,7.997979192559487,0.12110400000000002,3.9305146245234726,0.104976,-6.8457938787537955,0.133956
2.9000000000000012,8.30494483273487,0.11971600000000002,4.057242485376202,0.10304100000000001,-7.06577227365649,0.135424
3.0000000000000013,8.613922734827744,0.11833600000000002,4.185188213255556,0.101761,-7.286071359504927,0.136161
3.1000000000000014,8.9247205648379,0.11696400000000001,4.314262836604236,0.099856,-7.506657448884075,0.13764099999999999
3.2000000000000015,9.23716887857088,0.11560000000000002,4.444386192665245,0.098596,-7.727499899929056,0.138384
3.3000000000000016,9.55111827535871,0.11492100000000001,4.575485963957643,0.097344,-7.948570799178439,0.139876
3.4000000000000017,9.866436867146668,0.11356900000000002,4.70749682151051,0.0961,-8.16984468083306,0.140625
3.5000000000000018,10.183008049217108,0.11222500000000002,4.840359664671601,0.094864,-8.391298278025477,0.141376
3.600000000000002,10.500728549659847,0.11155600000000002,4.974020947575896,0.093636,-8.612910302229444,0.142884
3.700000000000002,10.819506730574947,0.11022400000000002,5.1084320829092995,0.092416,-8.834661247408421,0.143641
3.800000000000002,11.13926111302473,0.109561,5.2435489143068805,0.091204,-9.056533215920911,0.1444
3.900000000000002,11.459919098651673,0.108241,5.379331249495321,0.09,-9.278509763570092,0.145161
4.000000000000002,11.781415862798088,0.10758400000000001,5.515742447069456,0.088804,-9.500575761512078,0.145924
4.100000000000001,12.103693396361752,0.10627600000000001,5.652749050549167,0.088209,-9.72271727302213,0.146689
4.200000000000001,12.42669967615672,0.10562500000000001,5.790320464071611,0.08702499999999999,-9.944921443369356,0.147456
4.300000000000001,12.75038794602964,0.104976,5.928428664728035,0.085849,-10.16717640126857,0.148225
4.4,13.074716093294438,0.104329,6.067047947146303,0.08526399999999999,-10.389471170568331,0.14899600000000002
4.5,13.399646107144294,0.10304100000000001,6.20615469645246,0.0841,-10.611795591001393,0.14899600000000002
4.6,13.725143607561993,0.1024,6.345727186217369,0.08352099999999998,-10.834140246967435,0.149769
4.699999999999999,14.0511774348797,0.101761,-2.09629077426224,0.08352099999999998,-11.05649640344476,0.150544
4.799999999999999,14.377719291555575,0.101124,-2.1326059593792692,0.0841,-11.2788559482373,0.151321
4.899999999999999,14.704743428952348,0.10048900000000001,-2.168935103172159,0.08468099999999999,-11.5012113398596,0.1521
4.999999999999998,15.032226372949872,0.099856,-2.205268270452798,0.085849,-11.723555560444689,0.1521
5.099999999999998,15.36014668311628,0.09922500000000001,-2.2415963302632225,0.08643599999999999,-11.945882073134547,0.15288100000000002
5.1999999999999975,15.68848474092454,0.098596,-2.2779108814486886,0.08702499999999999,-12.1681847834748,0.15366400000000002
5.299999999999997,16.017222563149694,0.097969,-2.3142041859732956,0.08761599999999999,-12.390458004391977,0.15366400000000002
5.399999999999997,16.34634363713434,0.097344,-2.3504691090992242,0.088209,-12.612696424380067,0.154449
5.4999999999999964,16.67583277507976,0.096721,-2.386699065656522,0.088804,-12.83489507856579,0.155236
5.599999999999996,17.00567598491878,0.0961,-2.422887971723129,0.089401,-13.057049322359486,0.155236
5.699999999999996,17.335860355668455,0.0961,-2.4590302011161356,0.09,-13.27915480743119,0.15602500000000002
5.799999999999995,17.666373955449135,0.095481,-2.4951205461665635,0.09060099999999999,-13.501207459780641,0.15602500000000002
5.899999999999995,17.997205740604727,0.094864,-2.5311541823121395,0.091204,-13.723203459695277,0.156816
5.999999999999995,18.328345474570888,0.094249,-2.567126636096825,0.091809,-13.945139223412081,0.156816
6.099999999999994,18.659783655317007,0.093636,-2.603033756214545,0.092416,-14.167011386320205,0.15760900000000003
6.199999999999994,18.99151145034455,0.093636,-2.638871687275424,0.093025,-14.388816787557182,0.15760900000000003
6.299999999999994,19.32352063835624,0.093025,-2.6746368460105945,0.093025,-14.610552455868262,0.15840400000000002
6.399999999999993,19.655803556824473,0.092416,-2.71032589966301,0.093636,-14.83221559661105,0.15840400000000002
6.499999999999993,19.988353054786803,0.092416,-2.7459357463411855,0.094249,-15.053803579800526,0.159201
6.5999999999999925,20.321162450279378,0.091809,-2.7814634971365404,0.094864,-15.275313929099838,0.159201
6.699999999999992,20.654225491893857,0.091204,-2.8169064598281324,0.094864,-15.496744311671662,0.16000000000000003
6.799999999999992,20.98753632400571,0.091204,-2.8522621240169306,0.095481,-15.718092528814019,0.16000000000000003
6.8999999999999915,21.321089455277196,0.09060099999999999,-2.88752814754985,0.0961,-15.939356507311317,0.16080100000000003
6.999999999999991,21.65487973008496,0.09,-2.922702344107929,0.096721,-16.160534291438537,0.16080100000000003
7.099999999999991,21.988902302565016,0.09,-2.9577826718470313,0.096721,-16.381624035562485,0.16160400000000003
7.19999999999999,22.323152613002335,0.089401,-2.992767222990964,0.097344,-16.60262399728915,0.16160400000000003
7.29999999999999,22.657626366324923,0.088804,-3.0276542142874288,0.097344,-16.823532531111418,0.16160400000000003
7.39999999999999,22.992319512489125,0.088804,-3.062441978246537,0.097969,-17.044348082515366,0.16240900000000003
7.499999999999989,23.327228228566717,0.088209,-3.09712895508968,0.098596,-17.265069182507304,0.16240900000000003
7.599999999999989,23.66234890236624,0.088209,-3.131713685344092,0.098596,-17.4856944425275,0.16321600000000003
7.699999999999989,23.99767811743865,0.08761599999999999,-3.1661948030248306,0.09922500000000001,-17.70622254971911,0.16321600000000003
7.799999999999988,24.333212639333937,0.08761599999999999,-3.2005710293518135,0.09922500000000001,-17.926652262524264,0.16321600000000003
7.899999999999988,24.668949402989988,0.08702499999999999,-3.2348411669544035,0.099856,-18.14698240658119,0.16402500000000003
7.999999999999988,25.004885501147353,0.08702499999999999,-3.2690040945210743,0.099856,-18.367211870898977,0.16402500000000003
8.099999999999987,25.341018173694305,0.08643599999999999,-3.3030587618556355,0.10048900000000001,-18.587339604288516,0.16402500000000003
8.199999999999987,25.677344797857216,0.085849,-3.337004185305032,0.10048900000000001,-18.80736461202991,0.164836
8.299999999999986,26.013862879159817,0.085849,-3.3708394435272755,0.101124,-19.027285952758472,0.164836
8.399999999999986,26.350570043082115,0.08526399999999999,-3.4045636735709266,0.101124,-19.247102735552815,0.164836
8.499999999999986,26.68746402735733,0.08526399999999999,-3.4381760672402493,0.101761,-19.466814117210166,0.16564900000000002
8.599999999999985,27.024542674850938,0.08468099999999999,-3.4716758677223964,0.101761,-19.686419299694872,0.16564900000000002
8.699999999999985,27.36180392697178,0.08468099999999999,-3.5050623664553058,0.1024,-19.90591752774773,0.16564900000000002
8.799999999999985,27.69924581756919,0.0841,-3.5383349002170394,0.1024,-20.125308086644296,0.16646400000000003
8.899999999999984,28.036866467275757,0.0841,-3.5714928484186252,0.10304100000000001,-20.344590300091813,0.16646400000000003
8.999999999999984,28.374664078258135,0.0841,-3.6045356305841914,0.10304100000000001,-20.563763528254377,0.16646400000000003
9.099999999999984,28.712636929341883,0.08352099999999998,-3.6374627040043084,0.10368400000000001,-20.78282716589817,0.167281
9.199999999999983,29.05078337148075,0.08352099999999998,-3.67027356154815,0.10368400000000001,-21.00178064064764,0.167281
9.299999999999983,29.389101823541267,0.08294400000000002,-3.70296772962309,0.10368400000000001,-21.22062341134522,0.167281
9.399999999999983,29.72759076837876,0.08294400000000002,-3.735544766270026,0.104329,-21.439354966507906,0.16810000000000003
9.499999999999982,30.06624874918056,0.08236900000000003,-3.7680042593843055,0.104329,-21.657974822873665,0.16810000000000003
9.599999999999982,30.405074366056223,0.08236900000000003,-3.800345825052819,0.104976,-21.876482524031605,0.16810000000000003
9.699999999999982,30.744066272855825,0.08179600000000002,-3.832569105998692,0.104976,-22.094877639130832,0.16810000000000003
9.799999999999981,31.08322317419774,0.08179600000000002,-3.864673770125769,0.104976,-22.31315976166256,0.16892100000000002
9.89999999999998,31.422543822691363,0.08179600000000002,-3.8966595091552527,0.10562500000000001,-22.531328508310303,0.16892100000000002
9.99999999999998,31.762027016339417,0.08122500000000002,-3.928526037348318,0.10562500000000001,-22.7493835178645,0.16892100000000002
10.09999999999998,32.10167159610643,0.08122500000000002,-3.9602730903081653,0.10562500000000001,-22.967324450196795,0.16974400000000003
10.19999999999998,32.4414764436415,0.08065600000000002,-3.9919004238563343,0.10627600000000001,-23.185150985290598,0.16974400000000003
10.29999999999998,32.78144047914411,0.08065600000000002,-4.023407812977263,0.10627600000000001,-23.402862822323993,0.16974400000000003
10.399999999999979,33.12156265936232,0.08008900000000002,-4.0547950508274475,0.10627600000000001,-23.620459678802245,0.16974400000000003
10.499999999999979,33.461841975714194,0.08008900000000002,-4.086061947803675,0.10692900000000001,-23.83794128973625,0.17056900000000003
10.599999999999978,33.802277452523754,0.08008900000000002,-4.117208330666946,0.10692900000000001,-24.055307406864483,0.17056900000000003
10.699999999999978,34.142868145363245,0.07952400000000001,-4.148234041718192,0.10692900000000001,-24.272557797915827,0.17056900000000003
10.799999999999978,34.48361313949458,0.07952400000000001,-4.1791389380220565,0.10758400000000001,-24.48969224591046,0.17056900000000003
10.899999999999977,34.82451154840294,0.07952400000000001,-4.209922890675736,0.10758400000000001,-24.70671054849686,0.17139600000000002
10.999999999999977,35.16556251241626,0.07896100000000002,-4.240585784120009,0.10758400000000001,-24.923612517322685,0.17139600000000002
11.099999999999977,35.5067651974051,0.07896100000000002,-4.271127515489399,0.108241,-25.14039797743749,0.17139600000000002
11.199999999999976,35.848118793557354,0.07840000000000001,-4.301547993998971,0.108241,-25.357066766725303,0.17139600000000002
11.299999999999976,36.18962251422247,0.07840000000000001,-4.331847140365884,0.108241,-25.573618735365727,0.17222500000000002
11.399999999999975,36.53127559482134,0.07840000000000001,-4.36202488626251,0.10890000000000001,-25.7900537453214,0.17222500000000002
11.499999999999975,36.873077291817225,0.07784100000000002,-4.392081173800282,0.10890000000000001,-26.006371669850715,0.17222500000000002
11.599999999999975,37.21502688174333,0.07784100000000002,-4.4220159550412514,0.10890000000000001,-26.22257239304421,0.17222500000000002
11.699999999999974,37.55712366028453,0.07784100000000002,-4.4518291915364205,0.10890000000000001,-26.438655809383263,0.17305600000000004
11.799999999999974,37.8993669414087,0.07728400000000002,-4.481520853888782,0.109561,-26.654621823319914,0.17305600000000004
11.899999999999974,38.2417560565451,0.07728400000000002,-4.511090921339633,0.109561,-26.870470348876687,0.17305600000000004
11.999999999999973,38.58429035380686,0.07672900000000002,-4.5405393813766715,0.109561,-27.08620130926515,0.17305600000000004
12.099999999999973,38.92696919725474,0.07672900000000002,-4.569866229362958,0.11022400000000002,-27.30181463652226,0.173889
12.199999999999973,39.26979196619966,0.07672900000000002,-4.5990714681847855,0.11022400000000002,-27.517310271163815,0.173889
12.299999999999972,39.612758054541516,0.07617600000000001,-4.628155107917964,0.11022400000000002,-27.732688161853545,0.173889
12.399999999999972,39.955866870142714,0.07617600000000001,-4.657117165511023,0.11022400000000002,-27.94794826508756,0.173889
12.499999999999972,40.29911783423337,0.07617600000000001,-4.685957664484771,0.11088900000000002,-28.16309054489271,0.173889
12.599999999999971,40.64251038084696,0.07562500000000001,-4.714676634646679,0.11088900000000002,-28.3781149725391,0.174724
12.69999999999997,40.986043956284725,0.07562500000000001,-4.743274111819643,0.11088900000000002,-28.593021526264707,0.174724
12.79999999999997,41.329718018606656,0.07562500000000001,-4.771750137584341,0.11088900000000002,-28.807810191013004,0.174724
12.89999999999997,41.673532037147986,0.07507600000000002,-4.8001047590340775,0.11155600000000002,-29.022480958181276,0.174724
12.99999999999997,42.017485492059514,0.07507600000000002,-4.828338028541712,0.11155600000000002,-29.237033825380536,0.175561
13.09999999999997,42.36157787387013,0.07507600000000002,-4.8564500035378,0.11155600000000002,-29.451468796205617,0.175561
13.199999999999969,42.70580868307121,0.07452900000000001,-4.8844407462994806,0.11155600000000002,-29.665785880015,0.175561
13.299999999999969,43.050177429720414,0.07452900000000001,-4.912310323749367,0.11222500000000002,-29.87998509172033,0.175561
13.399999999999968,43.39468363306497,0.07452900000000001,-4.9400588072640055,0.11222500000000002,-30.094066451584638,0.175561
13.499999999999968,43.7393268211822,0.07398400000000001,-4.9676862724913935,0.11222500000000002,-30.308029985029137,0.17639999999999997
13.599999999999968,44.08410653063787,0.07398400000000001,-4.995192799176795,0.11222500000000002,-30.52187572244803,0.17639999999999997
13.699999999999967,44.42902230615974,0.07398400000000001,-5.022578470996885,0.11289600000000001,-30.73560369903096,0.17639999999999997
13.799999999999967,44.774073700326475,0.073441,-5.049843375401355,0.11289600000000001,-30.949213954592985,0.17639999999999997
13.899999999999967,45.11926027327129,0.073441,-5.076987603461792,0.11289600000000001,-31.162706533411267,0.17639999999999997
13.999999999999966,45.46458159239859,0.073441,-5.104011249727261,0.11289600000000001,-31.376081484068337,0.17724099999999998
14.099999999999966,45.81003723211395,0.0729,-5.13091441208676,0.11356900000000002,-31.58933885930196,0.17724099999999998
14.199999999999966,46.1556267735659,0.0729,-5.1576971916373395,0.11356900000000002,-31.802478715860886,0.17724099999999998
14.299999999999965,46.501349804399375,0.0729,-5.184359692558324,0.11356900000000002,-32.01550111436612,0.17724099999999998
14.399999999999965,46.8472059185205,0.0729,-5.210902021991085,0.11356900000000002,-32.228406119178004,0.17724099999999998
14.499999999999964,47.19319471587115,0.07236100000000001,-5.237324289923928,0.11356900000000002,-32.4411937982682,0.178084
14.599999999999964,47.53931580221392,0.07236100000000001,-5.263626609082046,0.11424400000000001,-32.653864223097074,0.178084
14.699999999999964,47.88556878892609,0.07236100000000001,-5.289809094822152,0.11424400000000001,-32.86641746849508,0.178084
14.799999999999963,48.23195329280271,0.07182400000000001,-5.315871865031756,0.11424400000000001,-33.078853612549665,0.178084
14.899999999999963,48.57846893586833,0.07182400000000001,-5.34181504003249,0.11424400000000001,-33.291172736495625,0.178084
14.999999999999963,48.92511534519609,0.07182400000000001,-5.367638742487699,0.11424400000000001,-33.5033749246102,0.17892899999999998
15.099999999999962,49.271892152735205,0.071289,-5.393343097313821,0.11492100000000001,-33.71546026411169,0.17892899999999998
15.199999999999962,49.61879899514565,0.071289,-5.4189282315953005,0.11492100000000001,-33.92742884506239,0.17892899999999998
15.299999999999962,49.96583551363904,0.071289,-5.444394274503383,0.11492100000000001,-34.1392807602743,0.17892899999999998
15.399999999999961,50.31300135382692,0.071289,-5.4697413572178135,0.11492100000000001,-34.351016105219315,0.17892899999999998
15.499999999999961,50.66029616557524,0.07075600000000001,-5.494969612852014,0.11492100000000001,-34.562634977941826,0.17892899999999998
15.59999999999996,51.007719602864206,0.07075600000000001,-5.520079176381003,0.11560000000000002,-34.774137478975106,0.179776
15.69999999999996,51.35527132365457,0.07075600000000001,-5.545070184572641,0.11560000000000002,-34.98552371126039,0.179776
15.79999999999996,51.70295098975891,0.07022500000000001,-5.5699427759210725,0.11560000000000002,-35.196793780068944,0.179776
15.89999999999996,52.05075826671808,0.07022500000000001,-5.5946970905832085,0.11560000000000002,-35.40794779292702,0.179776
15.99999999999996,52.398692823683,0.07022500000000001,-5.619333270317554,0.11560000000000002,-35.61898585954326,0.179776
16.09999999999996,52.74675433330062,0.06969600000000001,-5.643851458425372,0.11628100000000002,-35.829908091738844,0.18062499999999998
16.19999999999996,53.09494247160494,0.06969600000000001,-5.668251799694188,0.11628100000000002,-36.04071460338005,0.18062499999999998
16.29999999999996,53.44325691791171,0.06969600000000001,-5.692534440343522,0.11628100000000002,-36.25140551031309,0.18062499999999998
16.399999999999963,53.79169735471786,0.06969600000000001,-5.7166995279725725,0.11628100000000002,-36.46198093030122,0.18062499999999998
