BField (G),freq polarisation=-1,rel. intensity polarisation=-1,freq polarisation=0,rel. intensity polarisation=0,freq polarisation=1,rel. intensity polarisation=1
0,-1.1377976101040363,0.044944,1.7203232398331054,0.101761,1.72,0.25
0.1,1.8426680645942926,0.15366400000000002,1.7539182966049518,0.146689,1.639476627284905,0.071289
0.2,1.9710852777197534,0.15840400000000002,1.7777188475017554,0.142884,1.5486770160570695,0.066564
0.30000000000000004,2.105722831065273,0.16321600000000003,1.810455306779947,0.139129,-1.41873441608789,0.064516
0.4,2.2466542959095657,0.16810000000000003,1.8522337761828926,0.133956,-1.5012391701615626,0.066049
0.5,2.3938742399560953,0.17222500000000002,1.9031831573802576,0.128881,-1.5824062946376327,0.067081
0.6,2.547298585550106,0.175561,1.963452853198378,0.12320100000000002,-1.6638760193154294,0.06864400000000001
0.7,2.7067698970721827,0.17892899999999998,2.0332033876946394,0.11696400000000001,-1.7468070784291458,0.06969600000000001
0.7999999999999999,2.8720668459173604,0.182329,2.1125900768429764,0.11022400000000002,-1.8319787351697738,0.071289
0.8999999999999999,3.0429165873234996,0.18489999999999998,2.2017409690258236,0.10368400000000001,-1.9198786518972197,0.07236100000000001
0.9999999999999999,3.219008557926359,0.18662399999999998,2.3007315215182436,0.096721,-2.0107746335901617,0.073441
1.0999999999999999,3.4000082721808416,0.188356,2.4095596028190416,0.089401,-2.104772040925502,0.07398400000000001
1.2,3.585569983978899,0.190096,2.528124987692051,0.08236900000000003,-2.2018592928321743,0.07507600000000002
1.3,3.775347473432859,0.190969,0.07907340039224742,0.08526399999999999,-2.301943584534743,0.07562500000000001
1.4000000000000001,3.9690026118566433,0.191844,0.18701730013106532,0.09060099999999999,-2.4048785472238468,0.07617600000000001
1.5000000000000002,4.166211679518258,0.191844,0.2902587826401616,0.0961,-2.510485274207678,0.07617600000000001
1.6000000000000003,4.36666963083558,0.192721,0.3887694359118401,0.10048900000000001,-2.6185679328862563,0.07672900000000002
1.7000000000000004,4.5700926225153475,0.192721,0.48268074991343135,0.104976,-2.7289250270038004,0.07672900000000002
1.8000000000000005,4.776219161824144,0.192721,0.5722354090673858,0.10890000000000001,-2.8413572357138874,0.07672900000000002
1.9000000000000006,4.984810220396287,0.192721,0.6577460394698125,0.11222500000000002,-2.955672620987712,0.07728400000000002
2.0000000000000004,5.195648617104891,0.192721,0.7395620934712162,0.11492100000000001,-3.0716898620425845,0.07728400000000002
2.1000000000000005,5.408537919199416,0.191844,0.8180447911906166,0.11764900000000002,-3.1892400495752415,0.07672900000000002
2.2000000000000006,5.623301055631595,0.191844,0.8935493584066396,0.11971600000000002,-3.3081674589256735,0.07672900000000002
2.3000000000000007,5.839778786625876,0.191844,0.9664133794702419,0.12110400000000002,-3.4283296233169582,0.07672900000000002
2.400000000000001,6.057828131849195,0.190969,1.0369499400273243,0.12320100000000002,-3.5495969472002664,0.07672900000000002
2.500000000000001,6.277320826502393,0.190096,1.105444298565169,0.12390399999999999,-3.671852034849413,0.07617600000000001
2.600000000000001,6.498141849576348,0.190096,1.1721530076430824,0.12531599999999998,-3.794988858945336,0.07617600000000001
2.700000000000001,6.720188050157768,0.189225,1.2373046297048327,0.126025,-3.9189118557074085,0.07562500000000001
2.800000000000001,6.943366884679419,0.189225,1.3011014098117735,0.126736,-4.043535004841578,0.07562500000000001
2.9000000000000012,7.167595269139989,0.188356,1.3637214538569227,0.12744899999999998,-4.168780932041966,0.07507600000000002
3.0000000000000013,7.392798544507405,0.187489,1.4253211079391512,0.12744899999999998,-4.294580057171045,0.07507600000000002
3.1000000000000014,7.61890954991811,0.187489,1.4860373442081647,0.128164,-4.420869801055111,0.07452900000000001
3.2000000000000015,7.845867796235526,0.18662399999999998,1.5459900364901613,0.128164,-4.547593856889597,0.07452900000000001
3.3000000000000016,8.073618731546993,0.18662399999999998,1.6052840623119629,0.128164,-4.674701527645399,0.07398400000000001
3.4000000000000017,8.302113089898358,0.18576099999999998,1.6640112029816332,0.128881,-4.80214712792728,0.07398400000000001
3.5000000000000018,8.531306314738126,0.18489999999999998,1.7222518354532137,0.128881,-4.929889446954197,0.073441
3.600000000000002,8.761158048985106,0.18489999999999998,1.7800764228646067,0.128164,-5.057891268348586,0.0729
3.700000000000002,8.991631684227253,0.18404099999999998,1.8375468178703902,0.128164,-5.186118941972773,0.0729
3.800000000000002,9.222693962218619,0.18318399999999999,1.8947173962955963,0.128164,-5.314542002953712,0.07236100000000001
3.900000000000002,9.45431462251632,0.18318399999999999,1.9516360396589958,0.128164,-5.443132833161062,0.07236100000000001
4.000000000000002,9.686466090754871,0.182329,2.0083449847220516,0.128164,-5.571866360659637,0.07182400000000001
4.100000000000001,9.91912320267219,0.182329,2.064881557045068,0.128164,-5.700719792985603,0.07182400000000001
4.200000000000001,10.15226295956995,0.181476,2.121278803979105,0.12744899999999998,-5.829672380455221,0.071289
4.300000000000001,10.385864311407321,0.181476,2.1775660408404995,0.12744899999999998,-5.958705206079544,0.071289
4.4,10.619907964188828,0.18062499999999998,2.233769322350245,0.12744899999999998,-6.087800999012905,0.07075600000000001
4.5,10.854376208719303,0.179776,2.2899118498565834,0.126736,-6.216943968796487,0.07075600000000001
4.6,11.08925276816207,0.179776,2.3460143234352504,0.126736,-16.795009878642425,0.07075600000000001
4.699999999999999,11.324522662156996,0.17892899999999998,2.4020952466927064,0.126736,-17.110936949941554,0.071289
4.799999999999999,11.560172085535713,0.17892899999999998,2.4581711909836352,0.126025,-17.42681843203068,0.07182400000000001
4.899999999999999,11.796188299916412,0.178084,2.5142570247851044,0.126025,-17.74264830902843,0.07182400000000001
4.999999999999998,12.032559536676029,0.178084,2.5703661131352,0.126025,-18.058420954287836,0.07236100000000001
5.099999999999998,12.26927490998366,0.17724099999999998,2.6265104913263944,0.12531599999999998,-18.374131098537944,0.0729
5.1999999999999975,12.50632433874227,0.17724099999999998,2.6827010164316,0.12531599999999998,-18.689773801119706,0.073441
5.299999999999997,12.743698476428532,0.17639999999999997,2.738947499718698,0.12460899999999998,-19.00534442396841,0.07398400000000001
5.399999999999997,12.981388647943316,0.17639999999999997,2.795258822564074,0.12460899999999998,-19.32083860804129,0.07398400000000001
5.4999999999999964,13.219386792693497,0.175561,2.851643038097599,0.12460899999999998,-19.636252251924944,0.07452900000000001
5.599999999999996,13.457685413220169,0.175561,2.908107460490754,0.12390399999999999,-19.95158149238992,0.07507600000000002
5.699999999999996,13.696277528769727,0.174724,2.964658743525142,0.12390399999999999,-20.266822686688652,0.07507600000000002
5.799999999999995,13.935156633275948,0.174724,3.021302949847141,0.12320100000000002,-20.58197239641596,0.07562500000000001
5.899999999999995,14.17431665728386,0.174724,3.078045612116245,0.12320100000000002,-20.89702737277367,0.07617600000000001
5.999999999999995,14.413751933400725,0.173889,3.13489178708657,0.12320100000000002,-21.211984543097696,0.07617600000000001
6.099999999999994,14.653457164907248,0.173889,3.191846103516948,0.12250000000000003,-21.52684099852383,0.07672900000000002
6.199999999999994,14.893427397203961,0.17305600000000004,3.248912804683002,0.12250000000000003,-21.841593982680422,0.07728400000000002
6.299999999999994,15.133657991804558,0.17305600000000004,3.3060957861594975,0.12250000000000003,-22.156240881309962,0.07728400000000002
6.399999999999993,15.374144602620369,0.17222500000000002,3.363398629452104,0.12180100000000002,-22.470779212730985,0.07784100000000002
6.499999999999993,15.614883154307933,0.17222500000000002,3.4208246319800955,0.12180100000000002,-22.78520661906255,0.07840000000000001
6.5999999999999925,15.855869822477345,0.17222500000000002,3.4783768338467365,0.12110400000000002,-23.09952085814032,0.07840000000000001
6.699999999999992,16.09710101558073,0.17139600000000002,3.5360580417766476,0.12110400000000002,-23.413719796061763,0.07896100000000002
6.799999999999992,16.3385733583191,0.17139600000000002,3.5938708505507435,0.12110400000000002,-23.72780140030386,0.07896100000000002
6.8999999999999915,16.580283676424003,0.17139600000000002,3.6518176622279075,0.12040900000000002,-24.041763733362718,0.07952400000000001
6.999999999999991,16.822228982684557,0.17056900000000003,3.7099007034054594,0.12040900000000002,-24.3556049468693,0.07952400000000001
7.099999999999991,17.064406464104547,0.17056900000000003,3.768122040739856,0.12040900000000002,-24.669323276140304,0.08008900000000002
7.19999999999999,17.306813470085707,0.16974400000000003,3.8264835949211715,0.11971600000000002,-24.98291703512706,0.08065600000000002
7.29999999999999,17.549447501544407,0.16974400000000003,3.8849871532720996,0.11971600000000002,-25.296384611728698,0.08065600000000002
7.39999999999999,17.7923062008774,0.16974400000000003,3.9436343811208348,0.11902500000000002,-25.609724463439633,0.08122500000000002
7.499999999999989,18.035387342702244,0.16892100000000002,4.002426832080305,0.11902500000000002,-25.92293511330366,0.08122500000000002
7.599999999999989,18.278688825303366,0.16892100000000002,4.061365957349887,0.11902500000000002,-26.236015146149576,0.08179600000000002
7.699999999999989,18.52220866272324,0.16892100000000002,4.1204531141426415,0.11833600000000002,-26.548963205086224,0.08179600000000002
7.799999999999988,18.76594497744304,0.16810000000000003,4.179689573329124,0.11833600000000002,-26.86177798823582,0.08236900000000003
7.899999999999988,19.009895993602818,0.16810000000000003,4.239076526378533,0.11833600000000002,-27.174458245687113,0.08236900000000003
7.999999999999988,19.254060030715685,0.167281,4.298615091668572,0.11764900000000002,-27.487002776651376,0.08294400000000002
8.099999999999987,19.498435497835043,0.167281,4.358306320227783,0.11764900000000002,-27.79941042680557,0.08294400000000002
8.199999999999987,19.743020888137742,0.167281,4.418151200966961,0.11764900000000002,-28.111680085808327,0.08352099999999998
8.299999999999986,19.987814773889102,0.16646400000000003,4.478150665449938,0.11696400000000001,-28.423810684976058,0.08352099999999998
8.399999999999986,20.232815801759035,0.16646400000000003,4.538305592248695,0.11696400000000001,-28.735801195107182,0.08352099999999998
8.499999999999986,20.47802268846158,0.16646400000000003,4.5986168109230405,0.11696400000000001,-29.04765062444338,0.0841
8.599999999999985,20.72343421669198,0.16564900000000002,4.6590851056607345,0.11628100000000002,-29.35935801675824,0.0841
8.699999999999985,20.96904923133825,0.16564900000000002,4.71971121860993,0.11628100000000002,-29.670922449563925,0.08468099999999999
8.799999999999985,21.214866635945988,0.16564900000000002,4.780495852933184,0.11628100000000002,-29.9823430324275,0.08468099999999999
8.899999999999984,21.460885389417275,0.164836,4.841439675608543,0.11560000000000002,-30.29361890538909,0.08526399999999999
8.999999999999984,21.707104502925258,0.164836,4.902543320000898,0.11560000000000002,-30.60474923747496,0.08526399999999999
9.099999999999984,21.95352303702913,0.164836,4.963807388224584,0.11560000000000002,-30.915733225298915,0.085849
9.199999999999983,22.20014009897404,0.164836,5.025232453316203,0.11560000000000002,-31.226570091745597,0.085849
9.299999999999983,22.44695484016244,0.16402500000000003,5.086819061234127,0.11492100000000001,-31.537259084730806,0.085849
9.399999999999983,22.69396645378447,0.16402500000000003,5.148567732700384,0.11492100000000001,-31.847799476033046,0.08643599999999999
9.499999999999982,22.94117417259588,0.16402500000000003,5.210478964898478,0.11492100000000001,-32.15819056019188,0.08643599999999999
9.599999999999982,23.188577266832887,0.16321600000000003,5.272553233039826,0.11424400000000001,-32.46843165346874,0.08702499999999999
9.699999999999982,23.436175042254536,0.16321600000000003,5.334790991809804,0.11424400000000001,-32.7785220928658,0.08702499999999999
9.799999999999981,23.683966838302972,0.16321600000000003,5.39719267670386,0.11424400000000001,-33.088461235199645,0.08761599999999999
9.89999999999998,23.931952026374425,0.16240900000000003,5.459758705262949,0.11356900000000002,-33.39824845622555,0.08761599999999999
9.99999999999998,24.180130008192293,0.16240900000000003,5.522489478216494,0.11356900000000002,-33.70788314981002,0.08761599999999999
10.09999999999998,24.42850021427611,0.16240900000000003,5.585385380540828,0.11356900000000002,-34.017364727147644,0.088209
10.19999999999998,24.677062102499445,0.16160400000000003,5.648446782439677,0.11356900000000002,-34.326692616020324,0.088209
10.29999999999998,24.925815156731037,0.16160400000000003,5.711674040253381,0.11289600000000001,-34.63586626009565,0.088804
10.399999999999979,25.174758885553587,0.16160400000000003,5.775067497302404,0.11289600000000001,-34.94488511826228,0.088804
10.499999999999979,25.423892821055027,0.16160400000000003,5.838627484670335,0.11289600000000001,-35.25374866400007,0.088804
10.599999999999978,25.673216517687575,0.16080100000000003,5.902354321931295,0.11222500000000002,-35.562456384782934,0.089401
10.699999999999978,25.922729551190297,0.16080100000000003,5.966248317826079,0.11222500000000002,-35.87100778151229,0.089401
10.799999999999978,26.172431517570928,0.16080100000000003,6.0303097708909785,0.11222500000000002,-36.1794023679794,0.09
10.899999999999977,26.42232203214339,0.16000000000000003,6.094538970042992,0.11222500000000002,-36.487639670354845,0.09
10.999999999999977,26.672400728617333,0.16000000000000003,6.158936195124683,0.11155600000000002,-36.795719226703795,0.09
11.099999999999977,26.922667258236377,0.16000000000000003,6.223501717411914,0.11155600000000002,-37.103640586525096,0.09060099999999999
11.199999999999976,27.173121288962705,0.16000000000000003,6.2882358000870635,0.11155600000000002,-37.41140331031335,0.09060099999999999
11.299999999999976,27.4237625047039,0.159201,6.353138698680388,0.11088900000000002,-37.71900696914231,0.09060099999999999
11.399999999999975,27.674590604580708,0.159201,6.418210661481838,0.11088900000000002,-38.02645114426863,0.091204
11.499999999999975,27.925605302232626,0.159201,6.483451929925751,0.11088900000000002,-38.3337354267546,0.091204
11.599999999999975,28.176806325159085,0.15840400000000002,6.548862738950016,0.11088900000000002,-38.640859417108864,0.091204
11.699999999999974,28.4281934140944,0.15840400000000002,6.61444331733178,0.11022400000000002,-38.947822724944515,0.091809
11.799999999999974,28.67976632241391,0.15840400000000002,6.680193888001318,0.11022400000000002,-39.25462496865305,0.091809
11.899999999999974,28.93152481557042,0.15840400000000002,6.746114668335826,0.11022400000000002,-39.56126577509351,0.092416
11.999999999999973,29.18346867055795,0.15760900000000003,6.812205870434141,0.11022400000000002,-39.86774477929634,0.092416
12.099999999999973,29.435597675402853,0.15760900000000003,6.878467701374182,0.109561,-40.17406162418061,0.092416
12.199999999999973,29.687911628678776,0.15760900000000003,6.944900363453957,0.109561,-40.480215960284404,0.093025
12.299999999999972,29.940410339045812,0.156816,7.011504054417422,0.109561,-40.78620744550743,0.093025
12.399999999999972,30.193093624811596,0.156816,7.0782789676664635,0.10890000000000001,-41.09203574486502,0.093025
12.499999999999972,30.44596131351348,0.156816,7.145225292459363,0.10890000000000001,-41.39770053025348,0.093636
12.599999999999971,30.699013241520213,0.156816,7.21234321409735,0.10890000000000001,-41.70320148022561,0.093636
12.69999999999997,30.952249253652525,0.15602500000000002,7.279632914099496,0.10890000000000001,-42.00853827977645,0.093636
12.79999999999997,31.205669202821404,0.15602500000000002,7.347094570367037,0.108241,-42.31371062013799,0.094249
12.89999999999997,31.459272949682983,0.15602500000000002,7.414728357337761,0.108241,-42.61871819858331,0.094249
12.99999999999997,31.713060362309285,0.15602500000000002,7.482534446131009,0.108241,-42.9235607182389,0.094249
13.09999999999997,31.96703131587404,0.155236,7.550513004684056,0.108241,-43.228237887905124,0.094864
13.199999999999969,32.22118569235248,0.155236,7.618664197880301,0.10758400000000001,-43.532749421884425,0.094864
13.299999999999969,32.47552338023488,0.155236,7.6869881876699555,0.10758400000000001,-43.837095039816774,0.094864
13.399999999999968,32.73004427425254,0.155236,7.755485133183438,0.10758400000000001,-44.14127446652202,0.095481
13.499999999999968,32.984748275116054,0.154449,7.824155190838336,0.10758400000000001,-44.44528743184896,0.095481
13.599999999999968,33.239635289265095,0.154449,7.892998514440006,0.10692900000000001,-44.74913367053067,0.095481
13.699999999999967,33.49470522862872,0.154449,7.962015255276189,0.10692900000000001,-45.052812922045646,0.0961
13.799999999999967,33.74995801039649,0.15366400000000002,8.031205562206477,0.10692900000000001,-45.35632493048498,0.0961
13.899999999999967,34.005393556799,0.15366400000000002,8.100569581746338,0.10692900000000001,-45.65966944442473,0.0961
13.999999999999966,34.261011794898145,0.15366400000000002,8.170107458146477,0.10627600000000001,-45.96284621680356,0.096721
14.099999999999966,34.516812656385675,0.15366400000000002,8.239819333467565,0.10627600000000001,-46.26585500480532,0.096721
14.199999999999966,34.77279607739078,0.15288100000000002,8.309705347650901,0.10627600000000001,-46.56869556974634,0.096721
14.299999999999965,35.028961998295294,0.15288100000000002,8.379765638584853,0.10627600000000001,-46.87136767696718,0.097344
14.399999999999965,35.285310363556604,0.15288100000000002,8.450000342167673,0.10562500000000001,-47.17387109572886,0.097344
14.499999999999964,35.541841121537985,0.15288100000000002,8.520409592366802,0.10562500000000001,-47.476205599112944,0.097344
14.599999999999964,35.79855422434552,0.1521,8.59099352127486,0.10562500000000001,-47.77837096392558,0.097969
14.699999999999964,36.055449627672004,0.1521,8.661752259162323,0.10562500000000001,-48.08036697060564,0.097969
14.799999999999963,36.31252729064691,0.1521,8.732685934527671,0.10562500000000001,-48.38219340313571,0.097969
14.899999999999963,36.569787175692,0.1521,8.803794674144301,0.104976,-48.68385004895747,0.098596
14.999999999999963,36.82722924838335,0.151321,8.875078603105207,0.104976,-48.9853366988894,0.098596
15.099999999999962,37.08485347731826,0.151321,8.946537844865027,0.104976,-49.2866531470482,0.098596
15.199999999999962,37.342659833987554,0.151321,9.018172521279768,0.104976,-49.587799190772884,0.09922500000000001
15.299999999999962,37.60064829265271,0.151321,9.08998275264449,0.104329,-49.88877463055222,0.09922500000000001
15.399999999999961,37.858818830227825,0.150544,9.161968657728801,0.104329,-50.18957926995427,0.09922500000000001
15.499999999999961,38.11717142616619,0.150544,9.234130353810516,0.104329,-50.490212915558764,0.099856
15.59999999999996,38.375706062350815,0.150544,9.306467956707403,0.104329,-50.79067537689238,0.099856
15.69999999999996,38.63442272298945,0.150544,9.37898158080723,0.10368400000000001,-51.09096646636591,0.099856
15.79999999999996,38.893321394513436,0.149769,9.451671339096313,0.10368400000000001,-51.39108599921401,0.099856
15.89999999999996,39.15240206547977,0.149769,9.52453734318623,0.10368400000000001,-51.69103379343709,0.10048900000000001
15.99999999999996,39.41166472647825,0.149769,9.597579703339425,0.10368400000000001,-51.99080966974526,0.10048900000000001
16.09999999999996,39.67110937004011,0.149769,9.670798528493293,0.10304100000000001,-52.29041345150441,0.10048900000000001
16.19999999999996,39.930735990551426,0.14899600000000002,9.74419392628284,0.10304100000000001,-52.589844964684225,0.101124
16.29999999999996,40.19054458416895,0.14899600000000002,9.817766003062271,0.10304100000000001,-52.88910403780798,0.101124
16.399999999999963,40.450535148739384,0.14899600000000002,9.891514863925545,0.10304100000000001,-53.18819050190417,0.101124
