BField (G),freq polarisation=-1,rel. intensity polarisation=-1,freq polarisation=0,rel. intensity polarisation=0,freq polarisation=1,rel. intensity polarisation=1
0,-229.38558428983293,0.139129,-229.34305866010385,0.094864,-231.066429703548,0.1521
0.1,-229.13469588697197,0.139129,-230.8706529764645,0.0841,-231.1910700895787,0.16321600000000003
0.2,-228.88987987247512,0.138384,-230.70033242495612,0.098596,-231.33412285392689,0.17222500000000002
0.30000000000000004,-228.65128419819848,0.138384,-230.55736229342597,0.11356900000000002,-231.4920458556741,0.178084
0.4,-228.41898243542056,0.1369,-230.44159554396052,0.126736,-231.66184090414475,0.18318399999999999
0.5,-228.1929691518448,0.136161,-230.35092379040384,0.1369,-231.84111284882087,0.18576099999999998
0.6,-227.9731602698166,0.134689,-230.28202081750115,0.145161,-232.02800093853864,0.188356
0.7,-227.7593983537165,0.132496,-230.23123036019246,0.151321,-232.22107372353932,0.189225
0.7999999999999999,-227.55146207493937,0.131044,-230.1951777610481,0.154449,-232.41922917276978,0.190969
0.8999999999999999,-227.34907858872336,0.128881,-230.17103036179105,0.156816,-232.62161318307895,0.190969
0.9999999999999999,-227.15193733170395,0.126736,-230.1565253731725,0.15840400000000002,-232.8275573285237,0.190969
1.0999999999999999,-226.95970381833624,0.12460899999999998,-230.14989490265978,0.159201,-233.0365326694379,0.191844
1.2,-226.77203230251206,0.12180100000000002,-230.14976586036764,0.159201,-233.2481158395383,0.190969
1.3,-226.58857656434384,0.11971600000000002,-230.1550681519774,0.159201,-233.46196416227494,0.190969
1.4000000000000001,-226.40899847514532,0.11764900000000002,-230.16496077197556,0.15840400000000002,-233.6777973012646,0.190969
1.5000000000000002,-226.23297431518475,0.11560000000000002,-230.1787755863174,0.15760900000000003,-233.89538361954925,0.190096
1.6000000000000003,-226.06019903887986,0.11289600000000001,-230.19597559248808,0.156816,-234.11452994073414,0.190096
1.7000000000000004,-225.8903888029374,0.11088900000000002,-230.2161241614251,0.15602500000000002,-234.33507378323392,0.189225
1.8000000000000005,-225.72328211462397,0.10890000000000001,-230.23886233643924,0.154449,-234.5568774075356,0.189225
1.9000000000000006,-225.5586399455739,0.10692900000000001,-230.2638919670791,0.15366400000000002,-234.77982320524117,0.188356
2.0000000000000004,-225.39624511466027,0.104976,-230.29096305992633,0.15288100000000002,-235.00381009109856,0.188356
2.1000000000000005,-225.23590118913256,0.10304100000000001,-230.31986418934235,0.151321,-235.2287506523808,0.187489
2.2000000000000006,-225.0774310979425,0.101761,-230.3504151454364,0.150544,-235.4545688758586,0.18662399999999998
2.3000000000000007,-224.9206756013146,0.099856,-230.38246123331965,0.149769,-235.68119831956366,0.18662399999999998
2.400000000000001,-224.76549171891574,0.098596,-230.41586880399717,0.148225,-235.90858063027883,0.18576099999999998
2.500000000000001,-224.61175118594667,0.096721,-230.4505217139173,0.147456,-236.13666433215812,0.18576099999999998
2.600000000000001,-224.45933898139833,0.095481,-230.48631849236634,0.146689,-236.36540382977935,0.18489999999999998
2.700000000000001,-224.30815195435756,0.094249,-230.5231700541473,0.145924,-236.59475858215308,0.18404099999999998
2.800000000000001,-224.158097561257,0.093025,-230.56099783661784,0.145161,-236.82469241406187,0.18404099999999998
2.9000000000000012,-224.00909271809533,0.091809,-230.59973227020163,0.143641,-237.05517293851082,0.18318399999999999
3.0000000000000013,-223.86106276584056,0.09060099999999999,-230.6393115133638,0.142884,-237.2861710696815,0.18318399999999999
3.1000000000000014,-223.71394054362906,0.089401,-230.67968039913936,0.142129,-237.5176606100758,0.182329
3.2000000000000015,-223.5676655623242,0.088209,-230.72078955226021,0.141376,-237.74961789884156,0.182329
3.3000000000000016,-223.42218327001345,0.08761599999999999,-230.76259464489752,0.140625,-237.98202151083916,0.181476
3.4000000000000017,-223.27744440074267,0.08643599999999999,-230.80505576582556,0.139876,-238.2148519980139,0.181476
3.5000000000000018,-223.13340439796013,0.08526399999999999,-230.84813688300736,0.139129,-238.44809166622122,0.18062499999999998
3.600000000000002,-222.9900229045849,0.08468099999999999,-230.8918053836007,0.138384,-238.68172438190365,0.18062499999999998
3.700000000000002,-222.84726331220486,0.08352099999999998,-230.9360316784901,0.13764099999999999,-238.91573540401473,0.179776
3.800000000000002,-222.70509236257396,0.08294400000000002,-230.98078886088987,0.1369,-239.15011123738947,0.179776
3.900000000000002,-222.56347979524944,0.08236900000000003,-231.0260524104825,0.1369,-239.3848395044062,0.17892899999999998
4.000000000000002,-222.42239803586574,0.08122500000000002,-231.0717999360845,0.136161,-239.6199088323076,0.17892899999999998
4.100000000000001,-222.2818219201609,0.08065600000000002,-231.11801095105503,0.135424,-239.85530875397853,0.178084
4.200000000000001,-222.1417284494364,0.08008900000000002,-231.16466667664574,0.134689,-240.0910296203264,0.178084
4.300000000000001,-222.00209657365156,0.07952400000000001,-231.211749869289,0.133956,-240.3270625227008,0.17724099999999998
4.4,-221.86290699881084,0.07896100000000002,-231.25924466846894,0.13322499999999998,-240.5633992240244,0.17724099999999998
4.5,-221.72414201571908,0.07840000000000001,-231.30713646235304,0.13322499999999998,-240.80003209750822,0.17639999999999997
4.6,-221.58578534753966,0.07784100000000002,-231.35541176880005,0.132496,-241.03695407198737,0.17639999999999997
4.699999999999999,-221.44782201391234,0.07728400000000002,-231.40405812972017,0.131769,-241.27415858305275,0.175561
4.799999999999999,-221.31023820966882,0.07672900000000002,-231.45306401706614,0.131769,-241.51163952927044,0.175561
4.899999999999999,-221.1730211964273,0.07617600000000001,-231.50241874898327,0.131044,-241.74939123287666,0.175561
4.999999999999998,-221.0361592055647,0.07562500000000001,-231.55211241485785,0.130321,-241.9874084044225,0.174724
5.099999999999998,-220.89964135125007,0.07507600000000002,-231.60213580817873,0.130321,-242.225686110909,0.174724
5.1999999999999975,-220.7634575523864,0.07452900000000001,-231.6524803662773,0.1296,-242.4642197470165,0.173889
5.299999999999997,-220.62759846245058,0.07398400000000001,-231.7031381161365,0.128881,-242.7030050090807,0.173889
5.399999999999997,-220.49205540634307,0.07398400000000001,-231.75410162556636,0.128881,-242.9420378715135,0.173889
5.4999999999999964,-220.35682032347103,0.073441,-231.80536395913856,0.128164,-243.18131456540453,0.17305600000000004
5.599999999999996,-220.22188571637554,0.0729,-231.85691863834367,0.128164,-243.42083155906892,0.17305600000000004
5.699999999999996,-220.08724460430287,0.07236100000000001,-231.90875960550972,0.12744899999999998,-243.6605855403386,0.17222500000000002
5.799999999999995,-209.38344437072493,0.07236100000000001,-231.96088119107353,0.126736,-243.90057340041682,0.17222500000000002
5.899999999999995,-209.06944818907866,0.0729,-232.01327808384653,0.126736,-244.1407922191362,0.17222500000000002
5.999999999999995,-208.75550277498039,0.0729,-232.06594530396112,0.126025,-244.3812392514788,0.17139600000000002
6.099999999999994,-208.44161375180553,0.073441,-232.11887817822102,0.126025,-244.6219119152366,0.17139600000000002
6.199999999999994,-208.12778639981212,0.07398400000000001,-232.17207231760787,0.12531599999999998,-244.8628077796965,0.17139600000000002
6.299999999999994,-207.814025682142,0.07452900000000001,-232.2255235967311,0.12531599999999998,-245.10392455525653,0.17056900000000003
6.399999999999993,-207.50033626852905,0.07507600000000002,-232.2792281350244,0.12460899999999998,-245.34526008388042,0.17056900000000003
6.499999999999993,-207.186722556946,0.07507600000000002,-232.33318227952208,0.12460899999999998,-245.5868123303165,0.16974400000000003
6.5999999999999925,-206.873188693389,0.07562500000000001,-232.38738258905965,0.12390399999999999,-245.82857937400667,0.16974400000000003
6.699999999999992,-206.55973858998337,0.07617600000000001,-232.44182581976582,0.12390399999999999,-246.07055940162584,0.16974400000000003
6.799999999999992,-206.2463759415696,0.07672900000000002,-232.49650891172274,0.12320100000000002,-246.31275070019257,0.16892100000000002
6.8999999999999915,-205.93310424091598,0.07672900000000002,-232.5514289766881,0.12320100000000002,-246.5551516507027,0.16892100000000002
6.999999999999991,-205.61992679268482,0.07728400000000002,-232.60658328678073,0.12250000000000003,-246.79776072223868,0.16892100000000002
7.099999999999991,-205.30684672626913,0.07784100000000002,-232.66196926404334,0.12250000000000003,-247.04057646651398,0.16810000000000003
7.19999999999999,-204.99386700760263,0.07784100000000002,-232.71758447080416,0.12180100000000002,-247.2835975128154,0.16810000000000003
7.29999999999999,-204.6809904500373,0.07840000000000001,-232.77342660076744,0.12180100000000002,-247.52682256331042,0.16810000000000003
7.39999999999999,-204.3682197243706,0.07896100000000002,-232.82949347076885,0.12180100000000002,-247.77025038868763,0.167281
7.499999999999989,-204.0555573680992,0.07896100000000002,-232.88578301313945,0.12110400000000002,-248.0138798241051,0.167281
7.599999999999989,-203.7430057939662,0.07952400000000001,-232.94229326862575,0.12110400000000002,-248.25770976541915,0.167281
7.699999999999989,-203.43056729786397,0.07952400000000001,-232.9990223798204,0.12040900000000002,-248.50173916567343,0.167281
7.799999999999988,-203.1182440661468,0.08008900000000002,-233.0559685850599,0.12040900000000002,-248.74596703182564,0.16646400000000003
7.899999999999988,-202.80603818240465,0.08065600000000002,-233.11313021275214,0.11971600000000002,-248.99039242169457,0.16646400000000003
7.999999999999988,-202.4939516337426,0.08065600000000002,-233.17050567609823,0.11971600000000002,-249.23501444110966,0.16646400000000003
8.099999999999987,-202.18198631660727,0.08122500000000002,-233.22809346817755,0.11971600000000002,-249.47983224124786,0.16564900000000002
8.199999999999987,-201.87014404219724,0.08122500000000002,-233.28589215736702,0.11902500000000002,-249.7248450161433,0.16564900000000002
8.299999999999986,-201.55842654149214,0.08179600000000002,-233.34390038306853,0.11902500000000002,-249.9700520003573,0.16564900000000002
8.399999999999986,-201.24683546992978,0.08179600000000002,-233.40211685172048,0.11902500000000002,-250.215452466796,0.164836
8.499999999999986,-200.93537241176062,0.08236900000000003,-233.4605403330719,0.11833600000000002,-250.4610457246656,0.164836
8.599999999999985,-200.62403888410452,0.08236900000000003,-233.51916965669912,0.11833600000000002,-250.70683111755474,0.164836
8.699999999999985,-200.31283634073247,0.08294400000000002,-233.5780037087468,0.11764900000000002,-250.95280802163464,0.16402500000000003
8.799999999999985,-200.00176617559615,0.08294400000000002,-233.63704142887678,0.11764900000000002,-251.19897584396963,0.16402500000000003
8.899999999999984,-199.69082972612236,0.08352099999999998,-233.69628180740912,0.11764900000000002,-251.44533402092873,0.16402500000000003
8.999999999999984,-199.3800282762924,0.08352099999999998,-233.7557238826419,0.11696400000000001,-251.6918820166926,0.16402500000000003
9.099999999999984,-199.06936305952087,0.0841,-233.81536673833665,0.11696400000000001,-251.9386193218489,0.16321600000000003
9.199999999999983,-198.75883526134947,0.0841,-233.87520950135732,0.11696400000000001,-252.1855454520691,0.16321600000000003
9.299999999999983,-198.44844602196986,0.08468099999999999,-233.93525133945266,0.11628100000000002,-252.4326599468631,0.16321600000000003
9.399999999999983,-198.13819643858636,0.08468099999999999,-233.99549145917092,0.11628100000000002,-252.6799623684039,0.16240900000000003
9.499999999999982,-197.82808756763282,0.08526399999999999,-234.0559291038993,0.11628100000000002,-252.92745230042058,0.16240900000000003
9.599999999999982,-197.51812042685077,0.08526399999999999,-234.11656355201762,0.11560000000000002,-253.1751293471524,0.16240900000000003
9.699999999999982,-197.20829599724152,0.085849,-234.17739411516035,0.11560000000000002,-253.42299313236185,0.16240900000000003
9.799999999999981,-196.89861522489952,0.085849,-234.2384201365785,0.11560000000000002,-253.67104329840214,0.16160400000000003
9.89999999999998,-196.5890790227352,0.08643599999999999,-234.2996409895949,0.11492100000000001,-253.91927950533517,0.16160400000000003
9.99999999999998,-196.27968827209597,0.08643599999999999,-234.3610560761474,0.11492100000000001,-254.16770143009828,0.16160400000000003
10.09999999999998,-195.97044382429138,0.08702499999999999,-234.4226648254136,0.11492100000000001,-254.41630876571512,0.16080100000000003
10.19999999999998,-195.66134650202855,0.08702499999999999,-234.48446669251126,0.11424400000000001,-254.66510122054834,0.16080100000000003
10.29999999999998,-195.3523971007656,0.08702499999999999,-234.54646115727155,0.11424400000000001,-254.9140785175923,0.16080100000000003
10.399999999999979,-195.04359638998653,0.08761599999999999,-234.60864772307798,0.11424400000000001,-255.1632403938024,0.16080100000000003
10.499999999999979,-194.73494511440413,0.08761599999999999,-234.6710259157689,0.11356900000000002,-255.41258659945922,0.16000000000000003
10.599999999999978,-194.42644399509464,0.088209,-234.73359528259832,0.11356900000000002,-255.66211689756517,0.16000000000000003
10.699999999999978,-194.11809373056963,0.088209,-234.79635539125215,0.11356900000000002,-255.91183106327222,0.16000000000000003
10.799999999999978,-193.8098949977878,0.088804,-234.85930582891612,0.11289600000000001,-256.1617288833381,0.16000000000000003
10.899999999999977,-193.50184845311173,0.088804,-234.92244620139223,0.11289600000000001,-256.41181015561,0.159201
10.999999999999977,-193.19395473321248,0.088804,-234.98577613226118,0.11289600000000001,-256.6620746885336,0.159201
11.099999999999977,-192.88621445592528,0.089401,-235.0492952620874,0.11289600000000001,-256.91252230068676,0.159201
11.199999999999976,-192.57862822105918,0.089401,-235.1130032476648,0.11222500000000002,-257.1631528203352,0.15840400000000002
11.299999999999976,-192.27119661116427,0.09,-235.17689976130023,0.11222500000000002,-257.4139660850105,0.15840400000000002
11.399999999999975,-191.963920192258,0.09,-235.240984490133,0.11222500000000002,-257.6649619411073,0.15840400000000002
11.499999999999975,-191.65679951451392,0.09,-235.305257135488,0.11155600000000002,-257.91614024350116,0.15840400000000002
11.599999999999975,-191.34983511291455,0.09060099999999999,-235.36971741226066,0.11155600000000002,-258.1675008551825,0.15760900000000003
11.699999999999974,-191.04302750787076,0.09060099999999999,-235.43436504833187,0.11155600000000002,-258.4190436469097,0.15760900000000003
11.799999999999974,-190.73637720580962,0.091204,-235.49919978401124,0.11088900000000002,-258.6707684968766,0.15760900000000003
11.899999999999974,-190.42988469973247,0.091204,-235.56422137150685,0.11088900000000002,-258.9226752903964,0.15760900000000003
11.999999999999973,-190.12355046974525,0.091204,-235.62942957442064,0.11088900000000002,-259.1747639195995,0.156816
12.099999999999973,-189.8173749835618,0.091809,-235.69482416726714,0.11088900000000002,-259.42703428314525,0.156816
12.199999999999973,-189.51135869698302,0.091809,-235.76040493501506,0.11022400000000002,-259.6794862859462,0.156816
12.299999999999972,-189.20550205435222,0.092416,-235.82617167265,0.11022400000000002,-259.93211983890546,0.156816
12.399999999999972,-188.8998054889883,0.092416,-235.89212418475728,0.11022400000000002,-260.1849348586649,0.15602500000000002
12.499999999999972,-188.5942694235979,0.092416,-235.95826228512422,0.11022400000000002,-260.4379312673649,0.15602500000000002
12.599999999999971,-188.28889427066815,0.093025,-236.0245857963597,0.109561,-260.69110899241394,0.15602500000000002
12.69999999999997,-187.98368043284052,0.093025,-236.0910945495318,0.109561,-260.9444679662695,0.155236
12.79999999999997,-187.6786283032668,0.093025,-236.15778838382067,0.109561,-261.1980081262262,0.155236
12.89999999999997,-187.373738265949,0.093636,-236.2246671461875,0.10890000000000001,-261.45172941421527,0.155236
12.99999999999997,-187.06901069606278,0.093636,-236.29173069105795,0.10890000000000001,-261.70563177661097,0.155236
13.09999999999997,-186.76444596026636,0.093636,-236.35897888001887,0.10890000000000001,-261.9597151640455,0.154449
13.199999999999969,-186.46004441699495,0.094249,-236.42641158152875,0.10890000000000001,-262.21397953123187,0.154449
13.299999999999969,-186.15580641674197,0.094249,-236.49402867064032,0.108241,-262.46842483679364,0.154449
13.399999999999968,-185.85173230232766,0.094864,-236.56183002873524,0.108241,-262.72305104310226,0.154449
13.499999999999968,-185.5478224091554,0.094864,-236.62981554326979,0.108241,-262.97785811612044,0.15366400000000002
13.599999999999968,-185.24407706545617,0.094864,-236.697985107531,0.108241,-263.23284602525194,0.15366400000000002
13.699999999999967,-184.9404965925238,0.095481,-236.76633862040424,0.10758400000000001,-263.48801474319816,0.15366400000000002
13.799999999999967,-184.63708130493723,0.095481,-236.8348759861482,0.10758400000000001,-263.74336424581867,0.15366400000000002
13.899999999999967,-184.33383151077572,0.095481,-236.90359711418154,0.10758400000000001,-263.9988945119995,0.15288100000000002
13.999999999999966,-184.03074751182308,0.0961,-236.97250191887665,0.10758400000000001,-264.2546055235248,0.15288100000000002
14.099999999999966,-183.72782960376327,0.0961,-237.04159031936217,0.10692900000000001,-264.51049726495427,0.15288100000000002
14.199999999999966,-183.4250780763685,0.0961,-237.11086223933407,0.10692900000000001,-264.76656972350565,0.15288100000000002
14.299999999999965,-183.12249321367818,0.096721,-237.18031760687333,0.10692900000000001,-265.02282288894065,0.1521
14.399999999999965,-182.82007529417075,0.096721,-237.24995635427126,0.10692900000000001,-265.27925675345625,0.1521
14.499999999999964,-182.5178245909289,0.096721,-237.3197784178624,0.10627600000000001,-265.53587131157985,0.1521
14.599999999999964,-182.2157413717968,0.097344,-237.38978373786256,0.10627600000000001,-265.7926665600679,0.1521
14.699999999999964,-181.91382589953133,0.097344,-237.45997225821435,0.10627600000000001,-266.049642497809,0.151321
14.799999999999963,-181.61207843194728,0.097344,-237.53034392643826,0.10627600000000001,-266.30679912572987,0.151321
14.899999999999963,-181.31049922205636,0.097969,-237.60089869348934,0.10562500000000001,-266.56413644670585,0.151321
14.999999999999963,-181.00908851820043,0.097969,-237.67163651361938,0.10562500000000001,-266.82165446547316,0.151321
15.099999999999962,-180.7078465641793,0.097969,-237.74255734424457,0.10562500000000001,-267.0793531885458,0.150544
15.199999999999962,-180.40677359937382,0.098596,-237.81366114581766,0.10562500000000001,-267.33723262413423,0.150544
15.299999999999962,-180.10586985886363,0.098596,-237.88494788170559,0.104976,-267.59529278206855,0.150544
15.399999999999961,-179.80513557354027,0.098596,-237.95641751807077,0.104976,-267.8535336737224,0.150544
15.499999999999961,-179.50457097021567,0.09922500000000001,-238.02807002375727,0.104976,-268.1119553119406,0.149769
15.59999999999996,-179.20417627172728,0.09922500000000001,-238.09990537018157,0.104976,-268.3705577109705,0.149769
15.69999999999996,-178.90395169703737,0.09922500000000001,-238.1719235312261,0.104329,-268.62934088639275,0.149769
15.79999999999996,-178.60389746133035,0.099856,-238.24412448313794,0.104329,-268.8883048550578,0.149769
15.89999999999996,-178.3040137761051,0.099856,-238.3165082044301,0.104329,-269.147449635022,0.14899600000000002
15.99999999999996,-178.00430084926379,0.099856,-238.38907467578713,0.104329,-269.4067752454873,0.14899600000000002
16.09999999999996,-177.70475888519815,0.10048900000000001,-238.46182387997337,0.10368400000000001,-269.66628170674267,0.14899600000000002
16.19999999999996,-177.40538808487145,0.10048900000000001,-238.53475580174495,0.10368400000000001,-269.92596904010713,0.14899600000000002
